#               T [K]                 R [Ω]
1.300000000000000e+01 7.550271518655376e-10
1.304040404040404e+01 1.293974927075040e-09
1.308080808080808e+01 2.217630523270055e-09
1.312121212121212e+01 3.800603164371587e-09
1.316161616161616e+01 6.513521940670797e-09
1.320202020202020e+01 1.116295610517129e-08
1.324242424242424e+01 1.913121658196490e-08
1.328282828282828e+01 3.278732166156008e-08
1.332323232323232e+01 5.619132773020231e-08
1.336363636363636e+01 9.630141111310764e-08
1.340404040404040e+01 1.650425796753180e-07
1.344444444444444e+01 2.828520671247831e-07
1.348484848484848e+01 4.847554575304818e-07
1.352525252525253e+01 8.307800328997595e-07
1.356565656565657e+01 1.423801287562269e-06
1.360606060606061e+01 2.440128462525788e-06
1.364646464646465e+01 4.181922330672493e-06
1.368686868686869e+01 7.167029114234004e-06
1.372727272727273e+01 1.228293803527149e-05
1.376767676767677e+01 2.105063281732198e-05
1.380808080808081e+01 3.607677523578847e-05
1.384848484848485e+01 6.182863791068282e-05
1.388888888888889e+01 1.059621199846403e-04
1.392929292929293e+01 1.815974995560766e-04
1.396969696969697e+01 3.112190067450059e-04
1.401010101010101e+01 5.333560790699667e-04
1.405050505050505e+01 9.140282498947958e-04
1.409090909090909e+01 1.566343294302402e-03
1.413131313131313e+01 2.684037070653903e-03
1.417171717171717e+01 4.598814526543506e-03
1.421212121212121e+01 7.878210969655445e-03
1.425252525252525e+01 1.349210608506882e-02
1.429292929292929e+01 2.309458647019232e-02
1.433333333333333e+01 3.949678513387556e-02
1.437373737373737e+01 6.744768167858561e-02
1.441414141414142e+01 1.148876864120203e-01
1.445454545454546e+01 1.948596130565523e-01
1.449494949494949e+01 3.281381843886588e-01
1.453535353535354e+01 5.460769472415906e-01
1.457575757575758e+01 8.916229941132853e-01
1.461616161616162e+01 1.413567368345416e+00
1.465656565656566e+01 2.146964240325314e+00
1.469696969696970e+01 3.079306734078305e+00
1.473737373737374e+01 4.124756938869600e+00
1.477777777777778e+01 5.144401570913880e+00
1.481818181818182e+01 6.012598841833307e+00
1.485858585858586e+01 6.671168730450734e+00
1.489898989898990e+01 7.129830771749548e+00
1.493939393939394e+01 7.433883276052467e+00
1.497979797979798e+01 7.635847331045998e+00
1.502020202020202e+01 7.784191694963338e+00
1.506060606060606e+01 7.924686423547581e+00
1.510101010101010e+01 8.104321633078330e+00
1.514141414141414e+01 8.361069436003211e+00
1.518181818181818e+01 8.686033684940355e+00
1.522222222222222e+01 9.003913511727749e+00
1.526262626262626e+01 9.239169500143234e+00
1.530303030303030e+01 9.379677655765104e+00
1.534343434343434e+01 9.453963098518097e+00
1.538383838383838e+01 9.491691404848924e+00
1.542424242424242e+01 9.511406473323344e+00
1.546464646464647e+01 9.522700107731493e+00
1.550505050505051e+01 9.530147165341399e+00
1.554545454545455e+01 9.535853878991214e+00
1.558585858585859e+01 9.540775411984335e+00
1.562626262626263e+01 9.545342352296620e+00
1.566666666666667e+01 9.549748483460913e+00
1.570707070707071e+01 9.554081060086220e+00
1.574747474747475e+01 9.558379441710418e+00
1.578787878787879e+01 9.562661433665200e+00
1.582828282828283e+01 9.566935121873302e+00
1.586868686868687e+01 9.571204196817749e+00
1.590909090909091e+01 9.575470353601064e+00
1.594949494949495e+01 9.579734377045002e+00
1.598989898989899e+01 9.583996634143718e+00
1.603030303030303e+01 9.588257298638398e+00
1.607070707070707e+01 9.592516454054534e+00
1.611111111111111e+01 9.596774141333311e+00
1.615151515151515e+01 9.601030381053016e+00
1.619191919191919e+01 9.605285183910196e+00
1.623232323232323e+01 9.609538555727113e+00
1.627272727272727e+01 9.613790499879336e+00
1.631313131313131e+01 9.618041018491851e+00
1.635353535353535e+01 9.622290113038721e+00
1.639393939393939e+01 9.626537784649184e+00
1.643434343434344e+01 9.630784034266755e+00
1.647474747474747e+01 9.635028862733348e+00
1.651515151515152e+01 9.639272270834502e+00
1.655555555555556e+01 9.643514259324037e+00
1.659595959595960e+01 9.647754828937682e+00
1.663636363636364e+01 9.651993980400679e+00
1.667676767676768e+01 9.656231714432076e+00
1.671717171717172e+01 9.660468031747165e+00
1.675757575757576e+01 9.664702933058853e+00
1.679797979797980e+01 9.668936419078504e+00
1.683838383838384e+01 9.673168490516344e+00
1.687878787878788e+01 9.677399148081783e+00
1.691919191919192e+01 9.681628392483523e+00
1.695959595959596e+01 9.685856224429680e+00
1.700000000000000e+01 9.690082644627818e+00
